点号,X (m),Y (m),Z (m)
1,0.056135,0.000000,0.213276
2,0.056863,0.000000,0.214287
3,0.057599,0.000000,0.215279
4,0.058355,0.000000,0.216271
5,0.059124,0.000000,0.217251
6,0.059912,0.000000,0.218228
7,0.061543,0.000000,0.220169
8,0.063596,0.000001,0.222470
9,0.066064,0.000001,0.225051
10,0.068965,0.000001,0.227856
11,0.072477,0.000001,0.230966
12,0.076474,0.000001,0.234177
13,0.081041,0.000002,0.237472
14,0.086434,0.000002,0.240920
15,0.092321,0.000002,0.244207
16,0.099155,0.000003,0.247475
17,0.106310,0.000003,0.250340
18,0.114468,0.000004,0.252985
19,0.122899,0.000005,0.255088
20,0.131281,0.000006,0.256596
21,0.139452,0.000006,0.257541
22,0.147390,0.000007,0.257989
23,0.154748,0.000008,0.258004
24,0.161605,0.000009,0.257680
25,0.168021,0.000010,0.257087
26,0.174100,0.000010,0.256269
27,0.179386,0.000011,0.255355
28,0.184100,0.000012,0.254380
29,0.188201,0.000012,0.253409
30,0.191544,0.000013,0.252533
31,0.193239,0.000013,0.252059
32,0.194942,0.000013,0.251563
33,0.196644,0.000014,0.251047
34,0.198355,0.000014,0.250509
35,0.199997,0.000014,0.249972
