点号,X (m),Y (m),Z (m)
1,0.056135,0.000000,0.213276
2,0.060140,-0.000000,0.218508
3,0.064589,0.000000,0.223534
4,0.069470,0.000000,0.228325
5,0.074770,0.000000,0.232854
6,0.080476,0.000000,0.237091
7,0.086570,0.000000,0.241010
8,0.093035,0.000000,0.244584
9,0.099851,0.000001,0.247788
10,0.106997,0.000001,0.250599
11,0.114449,0.000001,0.252992
12,0.122185,0.000001,0.254948
13,0.130179,0.000001,0.256445
14,0.138404,0.000002,0.257465
15,0.146832,0.000002,0.257990
16,0.155434,0.000002,0.258006
17,0.164181,0.000003,0.257497
18,0.173041,0.000003,0.256452
19,0.181984,0.000003,0.254860
20,0.190976,0.000004,0.252713
21,0.199985,0.000004,0.250004
